  Height [m]     Pressure [Pa]  Temperature [K] Specific Humidity [kg/kg] Heating Forcing [K/s] Moistening Forcing [kg/kg/s] Longwave Forcing [K/s] Shortwave Forcing [K/s]     U [m/s]         V [m/s]    
    49.36400000 100647.34747745    296.55438232  1.673266850411891937e-02  0.00000000000000e+00  0.000000000000000000000e+00  0.000000000000000e+00  0.0000000000000000e+00      0.00000000      0.00000000
   151.90700000  99491.76340088    296.69510672  1.661583072275640838e-02  0.00000000000000e+00  0.000000000000000000000e+00  0.000000000000000e+00  0.0000000000000000e+00      0.00000000      0.00000000
   259.53400000  98382.67911612    297.43832425  1.599876723624842068e-02  0.00000000000000e+00  0.000000000000000000000e+00  0.000000000000000e+00  0.0000000000000000e+00      0.00000000      0.00000000
   372.24600000  97223.42463478    297.38359566  1.592292845087569381e-02  0.00000000000000e+00  0.000000000000000000000e+00  0.000000000000000e+00  0.0000000000000000e+00      0.00000000      0.00000000
   490.04200000  96013.74300358    297.02409701  1.611660901220687142e-02  0.00000000000000e+00  0.000000000000000000000e+00  0.000000000000000e+00  0.0000000000000000e+00      0.00000000      0.00000000
   612.92400000  94764.70766803    296.78552102  1.667761163104361857e-02  0.00000000000000e+00  0.000000000000000000000e+00  0.000000000000000e+00  0.0000000000000000e+00      0.00000000      0.00000000
   740.89000000  93470.03376102    296.41902838  1.696603063282036555e-02  0.00000000000000e+00  0.000000000000000000000e+00  0.000000000000000e+00  0.0000000000000000e+00      0.00000000      0.00000000
   873.94100000  92135.49578549    295.87869632  1.686680440381032459e-02  0.00000000000000e+00  0.000000000000000000000e+00  0.000000000000000e+00  0.0000000000000000e+00      0.00000000      0.00000000
  1012.07600000  90763.26126054    295.18423476  1.704341558180985303e-02  0.00000000000000e+00  0.000000000000000000000e+00  0.000000000000000e+00  0.0000000000000000e+00      0.00000000      0.00000000
  1155.29700000  89350.40296744    294.39165283  1.737851401155816183e-02  0.00000000000000e+00  0.000000000000000000000e+00  0.000000000000000e+00  0.0000000000000000e+00      0.00000000      0.00000000
  1303.60200000  88062.41289283    293.45097981  1.684446653244015338e-02  0.00000000000000e+00  0.000000000000000000000e+00  0.000000000000000e+00  0.0000000000000000e+00      0.00000000      0.00000000
  1456.99200000  86790.80566501    292.44984587  1.608493172963182394e-02  0.00000000000000e+00  0.000000000000000000000e+00  0.000000000000000e+00  0.0000000000000000e+00      0.00000000      0.00000000
  1615.46600000  85523.89271060    291.43538763  1.499034326305153861e-02  0.00000000000000e+00  0.000000000000000000000e+00  0.000000000000000e+00  0.0000000000000000e+00      0.00000000      0.00000000
  1779.02500000  84252.99036144    290.38993204  1.383638425517277719e-02  0.00000000000000e+00  0.000000000000000000000e+00  0.000000000000000e+00  0.0000000000000000e+00      0.00000000      0.00000000
  1947.66900000  82942.57604141    289.31197355  1.264654900963627093e-02  0.00000000000000e+00  0.000000000000000000000e+00  0.000000000000000e+00  0.0000000000000000e+00      0.00000000      0.00000000
  2121.39800000  81564.05882577    288.55754561  1.172075303740596243e-02  0.00000000000000e+00  0.000000000000000000000e+00  0.000000000000000e+00  0.0000000000000000e+00      0.00000000      0.00000000
  2300.21200000  80121.54414655    287.85705757  1.083189852409044591e-02  0.00000000000000e+00  0.000000000000000000000e+00  0.000000000000000e+00  0.0000000000000000e+00      0.00000000      0.00000000
  2484.11000000  78638.01620981    287.13665340  9.917772296335924595e-03  0.00000000000000e+00  0.000000000000000000000e+00  0.000000000000000e+00  0.0000000000000000e+00      0.00000000      0.00000000
  2673.09300000  77113.46694844    286.39632920  8.978369383309505597e-03  0.00000000000000e+00  0.000000000000000000000e+00  0.000000000000000e+00  0.0000000000000000e+00      0.00000000      0.00000000
  2867.16100000  75577.34303347    285.52844295  8.794720195771627003e-03  0.00000000000000e+00  0.000000000000000000000e+00  0.000000000000000e+00  0.0000000000000000e+00      0.00000000      0.00000000
  3066.31300000  74016.91981302    284.61557508  8.767669874289901397e-03  0.00000000000000e+00  0.000000000000000000000e+00  0.000000000000000e+00  0.0000000000000000e+00      0.00000000      0.00000000
  3270.55100000  72416.64606384    283.67939413  8.739928734061406385e-03  0.00000000000000e+00  0.000000000000000000000e+00  0.000000000000000e+00  0.0000000000000000e+00      0.00000000      0.00000000
  3479.87300000  70776.53745660    282.71990928  8.711497046741178973e-03  0.00000000000000e+00  0.000000000000000000000e+00  0.000000000000000e+00  0.0000000000000000e+00      0.00000000      0.00000000
  3694.28000000  69111.23406687    281.72717846  8.579922401448310601e-03  0.00000000000000e+00  0.000000000000000000000e+00  0.000000000000000e+00  0.0000000000000000e+00      0.00000000      0.00000000
  3913.77100000  67493.89131948    280.67768362  8.102693577908709824e-03  0.00000000000000e+00  0.000000000000000000000e+00  0.000000000000000e+00  0.0000000000000000e+00      0.00000000      0.00000000
  4138.34800000  65839.07184086    279.60387011  7.614406506894167911e-03  0.00000000000000e+00  0.000000000000000000000e+00  0.000000000000000e+00  0.0000000000000000e+00      0.00000000      0.00000000
  4368.00800000  64146.79773684    278.50575227  7.115067711161747639e-03  0.00000000000000e+00  0.000000000000000000000e+00  0.000000000000000e+00  0.0000000000000000e+00      0.00000000      0.00000000
  4602.75400000  62417.04690160    277.38331574  6.604670667954384497e-03  0.00000000000000e+00  0.000000000000000000000e+00  0.000000000000000e+00  0.0000000000000000e+00      0.00000000      0.00000000
  4842.58500000  60681.06536994    276.19164620  6.174272288454274969e-03  0.00000000000000e+00  0.000000000000000000000e+00  0.000000000000000e+00  0.0000000000000000e+00      0.00000000      0.00000000
  5087.50000000  58989.36357338    274.84637455  5.994907433214116330e-03  0.00000000000000e+00  0.000000000000000000000e+00  0.000000000000000e+00  0.0000000000000000e+00      0.00000000      0.00000000
  5337.50000000  57262.53814766    273.47317196  5.811818550091238031e-03  0.00000000000000e+00  0.000000000000000000000e+00  0.000000000000000e+00  0.0000000000000000e+00      0.00000000      0.00000000
  5592.58500000  55500.58909278    272.07203842  5.625005639085639206e-03  0.00000000000000e+00  0.000000000000000000000e+00  0.000000000000000e+00  0.0000000000000000e+00      0.00000000      0.00000000
  5852.75400000  53703.52331605    270.64297945  5.434469432552855445e-03  0.00000000000000e+00  0.000000000000000000000e+00  0.000000000000000e+00  0.0000000000000000e+00      0.00000000      0.00000000
  6118.00800000  51933.69294914    269.10755026  5.151651076679757309e-03  0.00000000000000e+00  0.000000000000000000000e+00  0.000000000000000e+00  0.0000000000000000e+00      0.00000000      0.00000000
  6388.34800000  50224.94382117    267.22770382  4.507800370642222818e-03  0.00000000000000e+00  0.000000000000000000000e+00  0.000000000000000e+00  0.0000000000000000e+00      0.00000000      0.00000000
  6663.77100000  48484.06636659    265.31251204  3.851843823298227096e-03  0.00000000000000e+00  0.000000000000000000000e+00  0.000000000000000e+00  0.0000000000000000e+00      0.00000000      0.00000000
  6944.28000000  46711.04162317    263.36195406  3.183774289748316812e-03  0.00000000000000e+00  0.000000000000000000000e+00  0.000000000000000e+00  0.0000000000000000e+00      0.00000000      0.00000000
  7229.87300000  44905.88223239    261.37604378  2.503596533258794620e-03  0.00000000000000e+00  0.000000000000000000000e+00  0.000000000000000e+00  0.0000000000000000e+00      0.00000000      0.00000000
  7520.55100000  43279.88837892    259.76333030  2.098357650694302173e-03  0.00000000000000e+00  0.000000000000000000000e+00  0.000000000000000e+00  0.0000000000000000e+00      0.00000000      0.00000000
  7816.31300000  41651.88228128    258.27015328  1.789834632656773020e-03  0.00000000000000e+00  0.000000000000000000000e+00  0.000000000000000e+00  0.0000000000000000e+00      0.00000000      0.00000000
  8117.16100000  39995.88056888    256.75129920  1.476006172845997257e-03  0.00000000000000e+00  0.000000000000000000000e+00  0.000000000000000e+00  0.0000000000000000e+00      0.00000000      0.00000000
  8423.09300000  38311.89425061    255.20677816  1.156874357554453286e-03  0.00000000000000e+00  0.000000000000000000000e+00  0.000000000000000e+00  0.0000000000000000e+00      0.00000000      0.00000000
  8734.11000000  36772.53566808    253.34690521  1.005207857504814700e-03  0.00000000000000e+00  0.000000000000000000000e+00  0.000000000000000e+00  0.0000000000000000e+00      0.00000000      0.00000000
  9050.21200000  35248.80863820    251.32701891  9.283602799251953639e-04  0.00000000000000e+00  0.000000000000000000000e+00  0.000000000000000e+00  0.0000000000000000e+00      0.00000000      0.00000000
  9371.39800000  33700.57487245    249.27464593  8.502767307781236312e-04  0.00000000000000e+00  0.000000000000000000000e+00  0.000000000000000e+00  0.0000000000000000e+00      0.00000000      0.00000000
  9697.67000000  32145.88301206    247.18543753  7.705751000360379528e-04  0.00000000000000e+00  0.000000000000000000000e+00  0.000000000000000e+00  0.0000000000000000e+00      0.00000000      0.00000000
 10029.02500000  30737.83840546    244.59320786  6.482237659346709027e-04  0.00000000000000e+00  0.000000000000000000000e+00  0.000000000000000e+00  0.0000000000000000e+00      0.00000000      0.00000000
 10365.46600000  29308.18158577    241.96118981  5.239944493515555964e-04  0.00000000000000e+00  0.000000000000000000000e+00  0.000000000000000e+00  0.0000000000000000e+00      0.00000000      0.00000000
 10706.99100000  27856.92105169    239.28939902  3.978878887776411992e-04  0.00000000000000e+00  0.000000000000000000000e+00  0.000000000000000e+00  0.0000000000000000e+00      0.00000000      0.00000000
 11053.60200000  26504.81888666    236.41615397  3.070841693127449794e-04  0.00000000000000e+00  0.000000000000000000000e+00  0.000000000000000e+00  0.0000000000000000e+00      0.00000000      0.00000000
 11405.29700000  25183.25673317    233.41159119  2.354572354429365015e-04  0.00000000000000e+00  0.000000000000000000000e+00  0.000000000000000e+00  0.0000000000000000e+00      0.00000000      0.00000000
 11762.07600000  23842.59046392    230.36359533  1.627948835780071608e-04  0.00000000000000e+00  0.000000000000000000000e+00  0.000000000000000e+00  0.0000000000000000e+00      0.00000000      0.00000000
 12123.94000000  22575.06297422    227.13853718  1.138462854206128110e-04  0.00000000000000e+00  0.000000000000000000000e+00  0.000000000000000e+00  0.0000000000000000e+00      0.00000000      0.00000000
 12490.89000000  21351.21957567    223.76382172  8.353367435621513034e-05  0.00000000000000e+00  0.000000000000000000000e+00  0.000000000000000e+00  0.0000000000000000e+00      0.00000000      0.00000000
 12862.92400000  20110.42013449    220.34235041  5.280108968600883464e-05  0.00000000000000e+00  0.000000000000000000000e+00  0.000000000000000e+00  0.0000000000000000e+00      0.00000000      0.00000000
 13240.04200000  18957.80563384    216.75766066  3.586072211160546829e-05  0.00000000000000e+00  0.000000000000000000000e+00  0.000000000000000e+00  0.0000000000000000e+00      0.00000000      0.00000000
 13622.24600000  17824.97998849    213.08100787  2.401470422433385368e-05  0.00000000000000e+00  0.000000000000000000000e+00  0.000000000000000e+00  0.0000000000000000e+00      0.00000000      0.00000000
 14009.53400000  16694.04242176    209.41077475  1.305853605022539685e-05  0.00000000000000e+00  0.000000000000000000000e+00  0.000000000000000e+00  0.0000000000000000e+00      0.00000000      0.00000000
 14401.90700000  15666.68208194    206.07955410  9.288992349700755873e-06  0.00000000000000e+00  0.000000000000000000000e+00  0.000000000000000e+00  0.0000000000000000e+00      0.00000000      0.00000000
 14799.36400000  14626.01017387    202.70517063  5.470606450111779631e-06  0.00000000000000e+00  0.000000000000000000000e+00  0.000000000000000e+00  0.0000000000000000e+00      0.00000000      0.00000000
 15201.90700000  13658.80006068    199.53907624  3.489664514265200131e-06  0.00000000000000e+00  0.000000000000000000000e+00  0.000000000000000e+00  0.0000000000000000e+00      0.00000000      0.00000000
 15609.53400000  12718.83145812    196.43922376  2.280541597538151829e-06  0.00000000000000e+00  0.000000000000000000000e+00  0.000000000000000e+00  0.0000000000000000e+00      0.00000000      0.00000000
 16022.24600000  11820.68337948    194.14371670  1.519360280983557642e-06  0.00000000000000e+00  0.000000000000000000000e+00  0.000000000000000e+00  0.0000000000000000e+00      0.00000000      0.00000000
 16440.04300000  10990.36259087    192.91849146  1.352185817057363037e-06  0.00000000000000e+00  0.000000000000000000000e+00  0.000000000000000e+00  0.0000000000000000e+00      0.00000000      0.00000000
 16862.92400000  10187.33310898    191.52880809  1.169030717893401318e-06  0.00000000000000e+00  0.000000000000000000000e+00  0.000000000000000e+00  0.0000000000000000e+00      0.00000000      0.00000000
 17290.89100000   9511.77431390    189.69113161  9.434533368147663643e-07  0.00000000000000e+00  0.000000000000000000000e+00  0.000000000000000e+00  0.0000000000000000e+00      0.00000000      0.00000000
 17723.94100000   8828.19185028    188.71861796  8.244353046936171235e-07  0.00000000000000e+00  0.000000000000000000000e+00  0.000000000000000e+00  0.0000000000000000e+00      0.00000000      0.00000000
 18162.07600000   8298.86397876    191.83224589  1.208661394622502194e-06  0.00000000000000e+00  0.000000000000000000000e+00  0.000000000000000e+00  0.0000000000000000e+00      0.00000000      0.00000000
 18605.29700000   7775.10712070    194.98201772  1.597347694060731779e-06  0.00000000000000e+00  0.000000000000000000000e+00  0.000000000000000e+00  0.0000000000000000e+00      0.00000000      0.00000000
 19053.60200000   7245.34246999    198.12146926  1.987666223772063352e-06  0.00000000000000e+00  0.000000000000000000000e+00  0.000000000000000e+00  0.0000000000000000e+00      0.00000000      0.00000000
