  Height [m]     Pressure [Pa]  Temperature [K] Specific Humidity [kg/kg] Heating Forcing [K/s] Moistening Forcing [kg/kg/s] Longwave Forcing [K/s] Shortwave Forcing [K/s]     U [m/s]         V [m/s]    
   131.52838391  99578.91915163    296.55438232  1.673266850411891937e-02  0.00000000000000e+00  0.000000000000000000000e+00  0.000000000000000e+00  0.0000000000000000e+00      0.00000000      0.00000000
   289.97864807  97949.91546659    297.64855957  1.582421734929084778e-02  0.00000000000000e+00  0.000000000000000000000e+00  0.000000000000000e+00  0.0000000000000000e+00      0.00000000      0.00000000
   474.49026618  96058.39643441    297.05429077  1.604560948908329010e-02  0.00000000000000e+00  0.000000000000000000000e+00  0.000000000000000e+00  0.0000000000000000e+00      0.00000000      0.00000000
   685.19700548  93921.18448309    296.64520264  1.700756512582302094e-02  0.00000000000000e+00  0.000000000000000000000e+00  0.000000000000000e+00  0.0000000000000000e+00      0.00000000      0.00000000
   921.44938427  91556.38994717    295.68576050  1.683137379586696625e-02  0.00000000000000e+00  0.000000000000000000000e+00  0.000000000000000e+00  0.0000000000000000e+00      0.00000000      0.00000000
  1182.76888249  88983.72365096    294.23962402  1.521850097924470901e-02  0.00000000000000e+00  0.000000000000000000000e+00  0.000000000000000e+00  0.0000000000000000e+00      0.00000000      0.00000000
  1468.16035504  86224.19540957    292.37695312  1.353968121111392975e-02  0.00000000000000e+00  0.000000000000000000000e+00  0.000000000000000e+00  0.0000000000000000e+00      0.00000000      0.00000000
  1977.51736073  82341.10502825    289.12118530  1.243595965206623077e-02  0.00000000000000e+00  0.000000000000000000000e+00  0.000000000000000e+00  0.0000000000000000e+00      0.00000000      0.00000000
  2705.62438328  76572.76437306    286.26889038  8.816661313176155090e-03  0.00000000000000e+00  0.000000000000000000000e+00  0.000000000000000e+00  0.0000000000000000e+00      0.00000000      0.00000000
  3644.01948849  69342.49044712    281.96749878  8.689201436936855316e-03  0.00000000000000e+00  0.000000000000000000000e+00  0.000000000000000e+00  0.0000000000000000e+00      0.00000000      0.00000000
  4779.43572639  61148.81473122    276.53851318  6.220520008355379105e-03  0.00000000000000e+00  0.000000000000000000000e+00  0.000000000000000e+00  0.0000000000000000e+00      0.00000000      0.00000000
  6064.31290315  52605.67003334    269.48092651  5.279533099383115768e-03  0.00000000000000e+00  0.000000000000000000000e+00  0.000000000000000e+00  0.0000000000000000e+00      0.00000000      0.00000000
  7306.09281143  44704.77275285    260.84603882  2.322068903595209122e-03  0.00000000000000e+00  0.000000000000000000000e+00  0.000000000000000e+00  0.0000000000000000e+00      0.00000000      0.00000000
  8518.15762274  37988.88359210    254.72683716  1.057708053849637508e-03  0.00000000000000e+00  0.000000000000000000000e+00  0.000000000000000e+00  0.0000000000000000e+00      0.00000000      0.00000000
  9694.64449108  32280.26919165    247.20910645  7.716922555118799210e-04  0.00000000000000e+00  0.000000000000000000000e+00  0.000000000000000e+00  0.0000000000000000e+00      0.00000000      0.00000000
 10829.05760709  27427.85314797    238.33445740  3.528153465595096350e-04  0.00000000000000e+00  0.000000000000000000000e+00  0.000000000000000e+00  0.0000000000000000e+00      0.00000000      0.00000000
 11919.49289391  23303.22169280    229.01876831  1.307350321440026164e-04  0.00000000000000e+00  0.000000000000000000000e+00  0.000000000000000e+00  0.0000000000000000e+00      0.00000000      0.00000000
 12964.68110030  19797.21828025    219.40652466  4.439524855115450919e-05  0.00000000000000e+00  0.000000000000000000000e+00  0.000000000000000e+00  0.0000000000000000e+00      0.00000000      0.00000000
 13960.55907493  16822.50797749    209.82656860  1.352904018858680502e-05  0.00000000000000e+00  0.000000000000000000000e+00  0.000000000000000e+00  0.0000000000000000e+00      0.00000000      0.00000000
 14917.85879517  14299.40387607    201.69915771  4.332222033553989604e-06  0.00000000000000e+00  0.000000000000000000000e+00  0.000000000000000e+00  0.0000000000000000e+00      0.00000000      0.00000000
 15841.80788577  12154.72407639    194.67286682  1.591559566804789938e-06  0.00000000000000e+00  0.000000000000000000000e+00  0.000000000000000e+00  0.0000000000000000e+00      0.00000000      0.00000000
 16753.07327964  10331.71266317    192.00050354  1.226931999553926289e-06  0.00000000000000e+00  0.000000000000000000000e+00  0.000000000000000e+00  0.0000000000000000e+00      0.00000000      0.00000000
 17646.13846979   8782.12302923    188.16571045  7.562057362520135939e-07  0.00000000000000e+00  0.000000000000000000000e+00  0.000000000000000e+00  0.0000000000000000e+00      0.00000000      0.00000000
 19045.53999513   7201.24505460    198.11062622  1.983422407647594810e-06  0.00000000000000e+00  0.000000000000000000000e+00  0.000000000000000e+00  0.0000000000000000e+00      0.00000000      0.00000000
 20923.30653282   5459.54797417    200.63613892  2.971873300339211710e-06  0.00000000000000e+00  0.000000000000000000000e+00  0.000000000000000e+00  0.0000000000000000e+00      0.00000000      0.00000000
 23360.55643097   3826.82997733    209.65176392  2.695391231100074947e-06  0.00000000000000e+00  0.000000000000000000000e+00  0.000000000000000e+00  0.0000000000000000e+00      0.00000000      0.00000000
 26490.23669076   2461.22200042    217.23307800  2.681364549061981961e-06  0.00000000000000e+00  0.000000000000000000000e+00  0.000000000000000e+00  0.0000000000000000e+00      0.00000000      0.00000000
 30398.18089116   1435.66322513    228.25141907  2.682006197574082762e-06  0.00000000000000e+00  0.000000000000000000000e+00  0.000000000000000e+00  0.0000000000000000e+00      0.00000000      0.00000000
 35145.10292720    759.48196463    240.26202393  2.749030272752861492e-06  0.00000000000000e+00  0.000000000000000000000e+00  0.000000000000000e+00  0.0000000000000000e+00      0.00000000      0.00000000
 40661.82969029    364.34656940    247.32139587  3.008777639479376376e-06  0.00000000000000e+00  0.000000000000000000000e+00  0.000000000000000e+00  0.0000000000000000e+00      0.00000000      0.00000000
